Wavelength,Abs
220,1.365
221,1.361
222,1.36
223,1.356
224,1.358
225,1.363
226,1.36
227,1.333
228,1.306
229,1.242
230,1.122
231,0.973
232,0.837
233,0.696
234,0.585
235,0.508
236,0.454
237,0.402
238,0.35
239,0.302
240,0.286
241,0.313
242,0.352
243,0.346
244,0.293
245,0.27
246,0.28
247,0.259
248,0.231
249,0.213
250,0.148
251,0.058
252,-0.012
253,-0.068
254,-0.103
255,-0.121
256,-0.163
257,-0.181
258,-0.136
259,-0.039
260,0.03
261,0.039
262,0.006
263,-0.044
264,-0.136
265,-0.191
266,-0.186
267,-0.161
268,-0.149
269,-0.138
270,-0.126
271,-0.11
272,-0.098
273,-0.089
274,-0.079
275,-0.078
276,-0.089
277,-0.098
278,-0.102
279,-0.095
280,-0.082
281,-0.062
282,-0.038
283,-0.017
284,0.003
285,0.019
286,0.014
287,-0.001
288,-0.007
289,-0.008
290,-0.02
291,-0.033
292,-0.04
293,-0.041
294,-0.048
295,-0.053
296,-0.033
297,-0.011
298,-0.017
299,-0.034
300,-0.05
301,-0.079
302,-0.102
303,-0.106
304,-0.11
305,-0.117
306,-0.124
307,-0.125
308,-0.116
309,-0.101
310,-0.086
311,-0.081
312,-0.094
313,-0.121
314,-0.147
315,-0.173
316,-0.198
317,-0.214
318,-0.219
319,-0.225
320,-0.237
321,-0.242
322,-0.239
323,-0.237
324,-0.236
325,-0.228
326,-0.22
327,-0.225
328,-0.241
329,-0.256
330,-0.272
331,-0.285
332,-0.287
333,-0.285
334,-0.287
335,-0.288
336,-0.29
337,-0.294
338,-0.301
339,-0.308
340,-0.313
341,-0.318
342,-0.325
343,-0.326
344,-0.319
345,-0.316
346,-0.32
347,-0.325
348,-0.333
349,-0.342
350,-0.354
351,-0.363
352,-0.363
353,-0.361
354,-0.357
355,-0.346
356,-0.324
357,-0.309
358,-0.3
359,-0.287
360,-0.265
361,-0.264
362,-0.282
363,-0.292
364,-0.311
365,-0.342
366,-0.363
367,-0.366
368,-0.371
369,-0.376
370,-0.375
371,-0.377
372,-0.385
373,-0.396
374,-0.402
375,-0.407
376,-0.404
377,-0.404
378,-0.41
379,-0.413
380,-0.421
381,-0.435
382,-0.436
383,-0.425
384,-0.423
385,-0.43
386,-0.435
387,-0.439
388,-0.444
389,-0.475
390,-0.513
391,-0.5
392,-0.477
393,-0.444
394,-0.377
395,-0.301
396,-0.28
397,-0.276
398,-0.28
399,-0.292
400,-0.295
401,-0.283
402,-0.247
403,-0.191
404,-0.115
405,-0.032
406,0.042
407,0.095
408,0.133
409,0.167
410,0.201
411,0.238
412,0.28
413,0.318
414,0.356
415,0.399
416,0.459
417,0.532
418,0.613
419,0.689
420,0.752
421,0.796
422,0.824
423,0.838
424,0.839
425,0.835
426,0.825
427,0.814
428,0.799
429,0.785
430,0.773
431,0.766
432,0.765
433,0.764
434,0.766
435,0.767
436,0.768
437,0.767
438,0.771
439,0.776
440,0.779
441,0.778
442,0.776
443,0.775
444,0.777
445,0.781
446,0.786
447,0.787
448,0.782
449,0.773
450,0.763
451,0.751
452,0.741
453,0.729
454,0.721
455,0.715
456,0.718
457,0.731
458,0.746
459,0.753
460,0.752
461,0.742
462,0.727
463,0.712
464,0.708
465,0.712
466,0.716
467,0.715
468,0.71
469,0.701
470,0.694
471,0.689
472,0.689
473,0.695
474,0.706
475,0.72
476,0.733
477,0.746
478,0.76
479,0.774
480,0.795
481,0.83
482,0.851
483,0.858
484,0.849
485,0.837
486,0.812
487,0.796
488,0.789
489,0.796
490,0.794
491,0.783
492,0.768
493,0.758
494,0.746
495,0.736
496,0.731
497,0.731
498,0.73
499,0.726
500,0.724
501,0.723
502,0.723
503,0.72
504,0.714
505,0.707
506,0.704
507,0.702
508,0.705
509,0.709
510,0.712
511,0.71
512,0.704
513,0.696
514,0.691
515,0.69
516,0.694
517,0.697
518,0.699
519,0.698
520,0.695
521,0.69
522,0.693
523,0.7
524,0.711
525,0.729
526,0.743
527,0.744
528,0.731
529,0.714
530,0.699
531,0.688
532,0.685
533,0.689
534,0.697
535,0.695
536,0.689
537,0.683
538,0.689
539,0.697
540,0.701
541,0.701
542,0.69
543,0.678
544,0.676
545,0.674
546,0.673
547,0.68
548,0.678
549,0.664
550,0.653
551,0.645
552,0.639
553,0.631
554,0.624
555,0.616
556,0.613
557,0.615
558,0.619
559,0.622
560,0.622
561,0.619
562,0.614
563,0.611
564,0.609
565,0.608
566,0.604
567,0.6
568,0.593
569,0.59
570,0.589
571,0.591
572,0.594
573,0.597
574,0.596
575,0.591
576,0.585
577,0.581
578,0.575
579,0.57
580,0.565
581,0.56
582,0.55
583,0.538
584,0.528
585,0.522
586,0.518
587,0.517
588,0.517
589,0.515
590,0.511
591,0.507
592,0.505
593,0.507
594,0.51
595,0.513
596,0.513
597,0.508
598,0.499
599,0.49
600,0.482
601,0.477
602,0.475
603,0.473
604,0.47
605,0.465
606,0.463
607,0.461
608,0.461
609,0.459
610,0.456
611,0.45
612,0.442
613,0.436
614,0.433
615,0.432
616,0.431
617,0.429
618,0.425
619,0.421
620,0.415
621,0.409
622,0.405
623,0.402
624,0.401
625,0.399
626,0.397
627,0.392
628,0.384
629,0.375
630,0.367
631,0.363
632,0.363
633,0.365
634,0.364
635,0.358
636,0.349
637,0.338
638,0.326
639,0.314
640,0.304
641,0.294
642,0.283
643,0.274
644,0.267
645,0.263
646,0.261
647,0.261
648,0.257
649,0.252
650,0.247
651,0.243
652,0.238
653,0.237
654,0.236
655,0.236
656,0.234
657,0.235
658,0.238
659,0.242
660,0.247
661,0.252
662,0.253
663,0.249
664,0.241
665,0.228
666,0.211
667,0.193
668,0.176
669,0.161
670,0.149
671,0.14
672,0.134
673,0.127
674,0.121
675,0.113
676,0.106
677,0.102
678,0.1
679,0.097
680,0.094
681,0.09
682,0.087
683,0.084
684,0.084
685,0.086
686,0.088
687,0.087
688,0.085
689,0.077
690,0.064
691,0.047
692,0.028
693,0.011
694,-0.005
695,-0.016
696,-0.021
697,-0.018
698,-0.012
699,-0.003
700,0.003
701,0.002
702,-0.012
703,-0.041
704,-0.084
705,-0.137
706,-0.191
707,-0.239
708,-0.272
709,-0.288
710,-0.289
711,-0.282
712,-0.276
713,-0.274
714,-0.277
715,-0.285
716,-0.3
717,-0.323
718,-0.358
719,-0.41
720,-0.478
721,-0.559
722,-0.646
723,-0.729
724,-0.8
725,-0.851
726,-0.877
727,-0.877
728,-0.858
729,-0.825
730,-0.786
731,-0.744
732,-0.705
733,-0.68
734,-0.677
735,-0.703
736,-0.756
737,-0.828
738,-0.9
739,-0.964
740,-1.018
741,-1.071
742,-1.128
743,-1.191
744,-1.259
745,-1.325
746,-1.383
747,-1.426
748,-1.452
749,-1.465
750,-1.465
